Learning Rate: 1e-05

Subject Number: 1
Accuracy Cross: [0.496551724137931, 0.496551724137931, 0.496551724137931, 0.4827586206896552, 0.5448275862068965, 0.5257142857142857, 0.4742857142857143, 0.32, 0.46285714285714286, 0.32571428571428573, 0.5402298850574713, 0.367816091954023, 0.42528735632183906, 0.47126436781609193, 0.4942528735632184]
  mean: 0.4616442255, std: 0.0689368277
F1 Score: [0.5016991089374867, 0.5163248242440789, 0.5028530326306139, 0.5047916666666666, 0.5363987868844309, 0.4757786390027983, 0.4339039125431531, 0.33101608735517213, 0.4145256648462364, 0.290110429022513, 0.5584149768360295, 0.3748459778208062, 0.45046725340482985, 0.49394527386575277, 0.5242861747617182]
  mean: 0.4606241206, std: 0.0754518362
Accuracy Intime: [0.8857142857142857, 0.8714285714285714, 0.8571428571428571, 0.9, 0.8382352941176471, 0.7931034482758621, 0.7586206896551724, 0.7586206896551724, 0.5862068965517241, 0.3793103448275862, 0.6551724137931034, 0.7586206896551724, 0.9310344827586207, 0.8275862068965517, 0.6896551724137931]
  mean: 0.7660301362, std: 0.1387613239
F1 In Time: [0.8899149149149149, 0.8727608422375864, 0.8509445197506815, 0.8928571428571428, 0.8404682274247492, 0.7670738045738046, 0.7457124381466487, 0.7550060009932679, 0.5840275240530995, 0.3543337789661319, 0.6098290598290599, 0.7310503531556163, 0.9099657874406799, 0.827702561717907, 0.665740438051651]
  mean: 0.7531591596, std: 0.1452460301
--------------------------------------------------
Subject Number: 2
Accuracy Cross: [0.5, 0.5208333333333334, 0.4444444444444444, 0.3958333333333333, 0.4305555555555556, 0.7517241379310344, 0.7793103448275862, 0.7241379310344828, 0.8, 0.7448275862068966, 0.5606936416184971, 0.5433526011560693, 0.42196531791907516, 0.5664739884393064, 0.5202312138728323]
  mean: 0.5802922286, std: 0.1367551056
F1 Score: [0.5034104784104784, 0.5226037138376574, 0.43149732090278875, 0.38640841916703983, 0.41961709971344857, 0.7396609087069826, 0.7669320279404945, 0.7133247800586511, 0.7812873314342162, 0.7265253077975375, 0.5294211464490103, 0.5240013944310127, 0.37655520830301437, 0.5593770508354788, 0.4967260926874455]
  mean: 0.5651565520, std: 0.1380215994
Accuracy Intime: [0.9137931034482759, 0.9827586206896551, 0.896551724137931, 0.7758620689655172, 0.8448275862068966, 0.8275862068965517, 0.9137931034482759, 0.6896551724137931, 0.7413793103448276, 0.6607142857142857, 0.7931034482758621, 0.8620689655172413, 0.7758620689655172, 0.8103448275862069, 0.6607142857142857]
  mean: 0.8099343186, std: 0.0929145274
F1 In Time: [0.9055555555555556, 0.9828571428571429, 0.879862700228833, 0.7456756756756757, 0.7670527670527669, 0.8384262125902993, 0.9202345938375349, 0.7130982827913774, 0.6568295739348371, 0.5870609782374488, 0.7699849170437405, 0.8649539541545151, 0.7562618595825428, 0.7789321789321789, 0.6164148351648352]
  mean: 0.7855467485, std: 0.1102620865
--------------------------------------------------
Subject Number: 3
Accuracy Cross: [0.4236111111111111, 0.4583333333333333, 0.3194444444444444, 0.3402777777777778, 0.5416666666666666, 0.4217687074829932, 0.5102040816326531, 0.46258503401360546, 0.5034013605442177, 0.46258503401360546, 0.4350282485875706, 0.4067796610169492, 0.4350282485875706, 0.4067796610169492, 0.3898305084745763]
  mean: 0.4344882586, std: 0.0577568360
F1 Score: [0.3554980315319658, 0.3641295018367837, 0.2290660225442834, 0.29595791805094135, 0.5244385342789598, 0.3541827570722946, 0.49094339622641514, 0.4402349902349903, 0.4553740851179181, 0.4493308868527673, 0.4065669656839143, 0.3646211662631154, 0.40361315754574184, 0.35273268194696855, 0.3280970445709988]
  mean: 0.3876524760, std: 0.0742558654
Accuracy Intime: [0.8666666666666667, 0.9333333333333333, 0.9482758620689655, 0.9827586206896551, 0.896551724137931, 0.7586206896551724, 0.8620689655172413, 0.7931034482758621, 0.9137931034482759, 0.875, 0.7241379310344828, 0.8448275862068966, 0.7931034482758621, 0.9137931034482759, 0.875]
  mean: 0.8654022989, std: 0.0699243531
F1 In Time: [0.8761904761904762, 0.9412143235672648, 0.930952380952381, 0.9856674856674856, 0.895930190973464, 0.7434343434343436, 0.8788500388500389, 0.7988866396761133, 0.9083869753434971, 0.8739878542510122, 0.7306912442396314, 0.8529616240266964, 0.8002083333333334, 0.9158744305803129, 0.8533283168662348]
  mean: 0.8657709772, std: 0.0693793194
--------------------------------------------------
Subject Number: 4
Accuracy Cross: [0.5448275862068965, 0.41379310344827586, 0.5310344827586206, 0.3310344827586207, 0.4, 0.4068965517241379, 0.4206896551724138, 0.35172413793103446, 0.3724137931034483, 0.38620689655172413, 0.5229885057471264, 0.3850574712643678, 0.5, 0.41379310344827586, 0.42528735632183906]
  mean: 0.4270498084, std: 0.0643183536
F1 Score: [0.5273980793207809, 0.36823566327297996, 0.49572518834869084, 0.23593073593073594, 0.3519001831501831, 0.42220996216897855, 0.4096063017598344, 0.3518747731995047, 0.36196018893387316, 0.4072672304055283, 0.4942241379310345, 0.3597198275862069, 0.5176737096159546, 0.4088509138595197, 0.44282738405872735]
  mean: 0.4103602853, std: 0.0751383547
Accuracy Intime: [0.6896551724137931, 0.6896551724137931, 0.8103448275862069, 0.39655172413793105, 0.4827586206896552, 0.8103448275862069, 0.7931034482758621, 0.7586206896551724, 0.7586206896551724, 0.7241379310344828, 0.6379310344827587, 0.6896551724137931, 0.6896551724137931, 0.43103448275862066, 0.5344827586206896]
  mean: 0.6597701149, std: 0.1315276061
F1 In Time: [0.6509538950715421, 0.6541666666666667, 0.7991666666666667, 0.4064102564102564, 0.4840839784189538, 0.7924193548387096, 0.7818654775176515, 0.7369132290184922, 0.7323548823548824, 0.7360579037445621, 0.6262626262626263, 0.6963237911513773, 0.6832317073170733, 0.43081792318634426, 0.4997373949579832]
  mean: 0.6473843836, std: 0.1272471990
--------------------------------------------------
Subject Number: 5
Accuracy Cross: [0.41379310344827586, 0.41379310344827586, 0.3793103448275862, 0.42758620689655175, 0.3931034482758621, 0.5337837837837838, 0.527027027027027, 0.581081081081081, 0.5472972972972973, 0.5608108108108109, 0.2585034013605442, 0.23129251700680273, 0.3197278911564626, 0.3469387755102041, 0.2653061224489796]
  mean: 0.4132903276, std: 0.1123190732
F1 Score: [0.3527309344790548, 0.3754667757716538, 0.32095608292416805, 0.3971565099826893, 0.32807592734063323, 0.5335588975683181, 0.5058398752012883, 0.5852572608681486, 0.49815442473767296, 0.5128619115597993, 0.18148679712022028, 0.14433120524209736, 0.32939792275235313, 0.29399385735411215, 0.20525793650793656]
  mean: 0.3709684213, std: 0.1302859026
Accuracy Intime: [0.7833333333333333, 0.9, 0.9310344827586207, 0.9655172413793104, 0.8620689655172413, 0.603448275862069, 0.9310344827586207, 0.8793103448275862, 0.7758620689655172, 0.8275862068965517, 0.7413793103448276, 0.896551724137931, 0.8103448275862069, 0.8448275862068966, 0.8275862068965517]
  mean: 0.8386590038, std: 0.0876930560
F1 In Time: [0.786502849002849, 0.9035318704284222, 0.9310217746518897, 0.9671368861024034, 0.8566760037348272, 0.5735049833887043, 0.9347261663286004, 0.8816813973063973, 0.7539553752535497, 0.7876447876447876, 0.7385699472096531, 0.8989798850574713, 0.8191611567488146, 0.8266879319510898, 0.8150928792569658]
  mean: 0.8316582596, std: 0.0957268877
--------------------------------------------------
Subject Number: 6
Accuracy Cross: [0.3125, 0.3263888888888889, 0.3819444444444444, 0.2916666666666667, 0.3611111111111111, 0.29931972789115646, 0.3673469387755102, 0.2585034013605442, 0.2789115646258503, 0.3469387755102041, 0.21768707482993196, 0.2585034013605442, 0.24489795918367346, 0.4217687074829932, 0.23809523809523808]
  mean: 0.3070389267, std: 0.0575776460
F1 Score: [0.32608689862288975, 0.3562190925578526, 0.36373250048879524, 0.2924498746867168, 0.34395841340175887, 0.25026193893147586, 0.3405545858957556, 0.21534952263718227, 0.22524680603948896, 0.29002607561929594, 0.23689862803337983, 0.24028050490883593, 0.2737545211453323, 0.4354387627471251, 0.26283287843780223]
  mean: 0.2968727336, std: 0.0603762896
Accuracy Intime: [0.7, 0.8333333333333334, 0.8448275862068966, 0.7241379310344828, 0.5689655172413793, 0.8275862068965517, 0.7068965517241379, 0.8448275862068966, 0.7068965517241379, 0.6964285714285714, 0.7586206896551724, 0.8448275862068966, 0.5517241379310345, 0.5862068965517241, 0.48214285714285715]
  mean: 0.7118281336, std: 0.1150581919
F1 In Time: [0.6819737919737919, 0.8319624819624819, 0.8264069264069265, 0.6619047619047619, 0.5017094017094017, 0.8353341013824885, 0.7083168642951252, 0.8490713587487781, 0.6756302521008404, 0.5933997155049787, 0.7568836405529955, 0.8428879310344828, 0.5398351648351648, 0.4893665158371041, 0.4043887147335423]
  mean: 0.6799381082, std: 0.1419091758
--------------------------------------------------
Subject Number: 7
Accuracy Cross: [0.4557823129251701, 0.42857142857142855, 0.4557823129251701, 0.5510204081632653, 0.4217687074829932, 0.4794520547945205, 0.363013698630137, 0.3698630136986301, 0.3904109589041096, 0.4246575342465753, 0.48299319727891155, 0.3673469387755102, 0.5238095238095238, 0.5374149659863946, 0.4897959183673469]
  mean: 0.4494455316, std: 0.0595346729
F1 Score: [0.4690740980214665, 0.4452225334578276, 0.43285917679817576, 0.5110284130644611, 0.3921235762442333, 0.466469411532893, 0.3232160724869109, 0.37829900839054154, 0.41406330625225346, 0.411776015380918, 0.43780467529012734, 0.35408110386146296, 0.46816888399882095, 0.48273830564392595, 0.4366126070991432]
  mean: 0.4282358125, std: 0.0488662445
Accuracy Intime: [0.8166666666666667, 0.7758620689655172, 0.8275862068965517, 0.9137931034482759, 0.6896551724137931, 0.8833333333333333, 0.8333333333333334, 0.8103448275862069, 0.7758620689655172, 0.7931034482758621, 0.6833333333333333, 0.896551724137931, 0.7413793103448276, 0.7758620689655172, 0.8275862068965517]
  mean: 0.8029501916, std: 0.0648700530
F1 In Time: [0.8228598484848484, 0.7932692307692308, 0.8168730650154798, 0.9121700879765395, 0.6037497590129168, 0.8897467475053682, 0.8432971014492754, 0.7908370633328188, 0.7057040998217469, 0.6537889194139195, 0.676643771137687, 0.9029353798375537, 0.7245564892623716, 0.7446943972835314, 0.7893217893217893]
  mean: 0.7780298500, std: 0.0893188791
--------------------------------------------------
Subject Number: 8
Accuracy Cross: [0.36666666666666664, 0.4266666666666667, 0.3933333333333333, 0.44666666666666666, 0.4266666666666667, 0.5405405405405406, 0.6283783783783784, 0.5472972972972973, 0.5135135135135135, 0.5608108108108109, 0.5170068027210885, 0.5034013605442177, 0.3129251700680272, 0.46258503401360546, 0.54421768707483]
  mean: 0.4793784397, std: 0.0813518482
F1 Score: [0.2858713654766286, 0.37415824915824913, 0.3139365371088875, 0.36900113134557133, 0.358695652173913, 0.5078904156944084, 0.5650123613349943, 0.5158837612789798, 0.4675039872408293, 0.5306091729552924, 0.5053553928682404, 0.40699982608382756, 0.257354510383321, 0.3930118866597996, 0.4688838021210724]
  mean: 0.4213445368, std: 0.0920642952
Accuracy Intime: [0.8, 0.9166666666666666, 0.8275862068965517, 0.896551724137931, 0.8448275862068966, 0.7, 0.95, 0.8103448275862069, 0.9310344827586207, 0.8793103448275862, 0.65, 0.9333333333333333, 0.8166666666666667, 0.896551724137931, 0.7068965517241379]
  mean: 0.8373180077, std: 0.0892291348
F1 In Time: [0.8092420888757097, 0.9172981920040744, 0.8182072829131652, 0.8973802800832835, 0.805050505050505, 0.7160714285714286, 0.9484622903977743, 0.8057646376611893, 0.9299489518844357, 0.8364845938375349, 0.6601391208236722, 0.9328861662531017, 0.7938665165479681, 0.8958170062695925, 0.6713632750397457]
  mean: 0.8291988224, std: 0.0898953142
--------------------------------------------------
Subject Number: 9
Accuracy Cross: [0.4405594405594406, 0.5244755244755245, 0.46153846153846156, 0.5104895104895105, 0.48951048951048953, 0.4315068493150685, 0.5068493150684932, 0.4794520547945205, 0.4726027397260274, 0.3835616438356164, 0.3945578231292517, 0.3469387755102041, 0.41496598639455784, 0.47619047619047616, 0.3945578231292517]
  mean: 0.4485171276, std: 0.0509933021
F1 Score: [0.4529300214000592, 0.5383468455875501, 0.4788649136630597, 0.5296329104197262, 0.48072562358276644, 0.4117924347507795, 0.502939297048167, 0.44859284634506247, 0.4429883803615471, 0.3622489952074165, 0.3845639936566881, 0.34751091967118825, 0.37317505697428444, 0.48282116944088777, 0.4180186812381044]
  mean: 0.4436768060, std: 0.0578125784
Accuracy Intime: [0.6333333333333333, 0.7068965517241379, 0.7068965517241379, 0.6206896551724138, 0.6206896551724138, 0.6896551724137931, 0.8103448275862069, 0.7586206896551724, 0.7857142857142857, 0.6964285714285714, 0.8620689655172413, 0.6551724137931034, 0.5344827586206896, 0.5357142857142857, 0.6071428571428571]
  mean: 0.6815900383, std: 0.0917965396
F1 In Time: [0.655952380952381, 0.7024554367201425, 0.6929515327684664, 0.5531922618319678, 0.5329716453177465, 0.707491789819376, 0.8105012803288665, 0.7588443616029823, 0.7629862428842505, 0.575487012987013, 0.8631278801843318, 0.6206877206877207, 0.5059523809523809, 0.47032423740610074, 0.5268237304241361]
  mean: 0.6493166597, std: 0.1158768134
--------------------------------------------------
Subject Number: 10
Accuracy Cross: [0.5310344827586206, 0.503448275862069, 0.5172413793103449, 0.5103448275862069, 0.5586206896551724, 0.363013698630137, 0.4178082191780822, 0.4041095890410959, 0.5, 0.4589041095890411, 0.538961038961039, 0.33116883116883117, 0.4090909090909091, 0.474025974025974, 0.4675324675324675]
  mean: 0.4656869662, std: 0.0651023244
F1 Score: [0.5320542280554312, 0.4835807050092764, 0.5249879972892579, 0.4828624363131079, 0.5521043142734161, 0.3733751913856002, 0.42049850786409926, 0.3620696125340088, 0.5062306823371068, 0.47366454927871804, 0.5083494467172796, 0.2311036789297659, 0.379481430112498, 0.4351274641658488, 0.4119944928921635]
  mean: 0.4451656491, std: 0.0819725629
Accuracy Intime: [0.7333333333333333, 0.8448275862068966, 0.8620689655172413, 0.8448275862068966, 0.6724137931034483, 0.6724137931034483, 0.7758620689655172, 0.8103448275862069, 0.896551724137931, 0.7413793103448276, 0.7068965517241379, 0.6551724137931034, 0.7241379310344828, 0.7068965517241379, 0.6379310344827587]
  mean: 0.7523371648, std: 0.0794050927
F1 In Time: [0.7503795546558705, 0.8492309907834101, 0.8672531769305962, 0.8467569786535304, 0.6869590939824206, 0.6847085812603054, 0.7793290854572714, 0.8097350230414747, 0.9047619047619048, 0.6954878215654078, 0.7087566137566138, 0.6652734238941135, 0.7247596153846154, 0.7048792056868514, 0.6256812981069274]
  mean: 0.7535968245, std: 0.0813876433
--------------------------------------------------
Subject Number: 11
Accuracy Cross: [0.4, 0.42758620689655175, 0.41379310344827586, 0.31724137931034485, 0.38620689655172413, 0.3561643835616438, 0.3698630136986301, 0.4520547945205479, 0.3287671232876712, 0.3767123287671233, 0.18471337579617833, 0.21656050955414013, 0.1910828025477707, 0.20382165605095542, 0.3375796178343949]
  mean: 0.3308098128, std: 0.0869345409
F1 Score: [0.31351909184726523, 0.38856775763673385, 0.33560255258368465, 0.29281208233092754, 0.30297393154647273, 0.34035343643772087, 0.34108884841029075, 0.42206998590502187, 0.2805682242935424, 0.3587176478072722, 0.16446721841458684, 0.18915206415206415, 0.1775637901199414, 0.17233643549433023, 0.30967778315953426]
  mean: 0.2926313900, std: 0.0785800741
Accuracy Intime: [0.6666666666666666, 0.7413793103448276, 0.6724137931034483, 0.5172413793103449, 0.8448275862068966, 0.6724137931034483, 0.6379310344827587, 0.6896551724137931, 0.6206896551724138, 0.6896551724137931, 0.7068965517241379, 0.7241379310344828, 0.5862068965517241, 0.8103448275862069, 0.7241379310344828]
  mean: 0.6869731801, std: 0.0786850431
F1 In Time: [0.6895924859869716, 0.7414980009995003, 0.6581625074272134, 0.5109048427063132, 0.8476797658862876, 0.6737179487179488, 0.6142721669037459, 0.6793120393120393, 0.6178917120387175, 0.6826724137931035, 0.6869572905854765, 0.7116758241758242, 0.5814132104454686, 0.7918459108748689, 0.7238643105347911]
  mean: 0.6807640287, std: 0.0793646374
--------------------------------------------------
Subject Number: 12
Accuracy Cross: [0.3356643356643357, 0.34265734265734266, 0.2727272727272727, 0.3076923076923077, 0.34265734265734266, 0.4413793103448276, 0.4413793103448276, 0.4206896551724138, 0.5103448275862069, 0.42758620689655175, 0.4041095890410959, 0.5821917808219178, 0.5136986301369864, 0.4520547945205479, 0.5547945205479452]
  mean: 0.4233084818, std: 0.0882737822
F1 Score: [0.2996424497520689, 0.32483603115860293, 0.2229239766081871, 0.30312406254030305, 0.32469610546743033, 0.4235453431372549, 0.4635519010471572, 0.43740034132300876, 0.46960122150093153, 0.44810283030527753, 0.38103939170630396, 0.5568931068931069, 0.4816842182243674, 0.44490881458966564, 0.5423626664109723]
  mean: 0.4082874974, std: 0.0924424078
Accuracy Intime: [0.7586206896551724, 0.9655172413793104, 0.9655172413793104, 0.9137931034482759, 0.8103448275862069, 0.6724137931034483, 0.896551724137931, 0.7413793103448276, 0.8035714285714286, 0.75, 0.6206896551724138, 0.8103448275862069, 0.7586206896551724, 0.7321428571428571, 0.6785714285714286]
  mean: 0.7918719212, std: 0.1011400451
F1 In Time: [0.7432692307692308, 0.9663104838709677, 0.9656177156177157, 0.9118862227872239, 0.7978998968008256, 0.6864285714285714, 0.9003970741901777, 0.752196223316913, 0.8044156807226885, 0.7612637531501629, 0.5766369047619048, 0.8171551724137931, 0.7641369047619048, 0.7237190197716513, 0.6764705882352942]
  mean: 0.7898535628, std: 0.1060246967
--------------------------------------------------
Subject Number: 13
Accuracy Cross: [0.21379310344827587, 0.21379310344827587, 0.2620689655172414, 0.2206896551724138, 0.296551724137931, 0.35570469798657717, 0.348993288590604, 0.436241610738255, 0.40939597315436244, 0.348993288590604, 0.125, 0.1388888888888889, 0.1736111111111111, 0.1736111111111111, 0.18055555555555555]
  mean: 0.2598594718, std: 0.0964935694
F1 Score: [0.1359357696566999, 0.13566465956461324, 0.17943925233644858, 0.13892961876832843, 0.2120961832931875, 0.28740355510046434, 0.24928977272727273, 0.3765159038247419, 0.34761725718510966, 0.25754985754985754, 0.07627118644067797, 0.10366616989567809, 0.12006448412698413, 0.11315666041275797, 0.1562583757705709]
  mean: 0.1926572471, std: 0.0888806507
Accuracy Intime: [0.7758620689655172, 0.8620689655172413, 0.7413793103448276, 0.7241379310344828, 0.7678571428571429, 0.8275862068965517, 0.8448275862068966, 0.9137931034482759, 0.8620689655172413, 0.8035714285714286, 0.603448275862069, 0.7068965517241379, 0.6551724137931034, 0.6206896551724138, 0.6551724137931034]
  mean: 0.7576354680, std: 0.0926377459
F1 In Time: [0.7822775263951736, 0.8655023351797546, 0.745983645983646, 0.7159100877192983, 0.761865971543391, 0.830316742081448, 0.8377403846153846, 0.9098155467720686, 0.8548648931713448, 0.7825123152709359, 0.6196500105418512, 0.7123443223443224, 0.6465090090090091, 0.606168344399229, 0.6303847296494356]
  mean: 0.7534563910, std: 0.0935881601
--------------------------------------------------
Subject Number: 14
Accuracy Cross: [0.3835616438356164, 0.23972602739726026, 0.273972602739726, 0.2808219178082192, 0.2671232876712329, 0.4246575342465753, 0.3287671232876712, 0.4041095890410959, 0.5547945205479452, 0.3904109589041096, 0.20618556701030927, 0.25773195876288657, 0.09278350515463918, 0.2268041237113402, 0.25773195876288657]
  mean: 0.3059454879, std: 0.1074499104
F1 Score: [0.30988529054071334, 0.15824183318556911, 0.20668171114599687, 0.21008047959267473, 0.1980769230769231, 0.3534430846930847, 0.30250280467642887, 0.3495836127878381, 0.5041827815320101, 0.39073742349604423, 0.17847222222222223, 0.2062289562289562, 0.12325962325962327, 0.22767857142857142, 0.19518716577540107]
  mean: 0.2609494989, std: 0.1002534285
Accuracy Intime: [0.925, 0.925, 0.9736842105263158, 0.8947368421052632, 0.8157894736842105, 1.0, 0.925, 0.8947368421052632, 0.8947368421052632, 0.8157894736842105, 0.8666666666666667, 0.9655172413793104, 1.0, 1.0, 0.9482758620689655]
  mean: 0.9229955636, std: 0.0585220930
F1 In Time: [0.9265428824049513, 0.9284802043422733, 0.9696342305037957, 0.8917748917748917, 0.8069150908416759, 1.0, 0.927741935483871, 0.8864527629233511, 0.8936599811549334, 0.8101253427340384, 0.8743194192377495, 0.9665178571428572, 1.0, 1.0, 0.9527093596059113]
  mean: 0.9223249305, std: 0.0603070887
--------------------------------------------------
Subject Number: 15
Accuracy Cross: [0.4041095890410959, 0.4589041095890411, 0.4863013698630137, 0.410958904109589, 0.4726027397260274, 0.4930555555555556, 0.4444444444444444, 0.4166666666666667, 0.4652777777777778, 0.4166666666666667, 0.35172413793103446, 0.33793103448275863, 0.3793103448275862, 0.3586206896551724, 0.5172413793103449]
  mean: 0.4275876940, std: 0.0531851522
F1 Score: [0.415235231184724, 0.45408624516570545, 0.46128816674545753, 0.4283843577578715, 0.4381621274085184, 0.47747629083245524, 0.43583035828481503, 0.41255770723950913, 0.4490066300207972, 0.3733860525342212, 0.3503661389813626, 0.30285881958417177, 0.3099273783587509, 0.3141684184602394, 0.5060181094212124]
  mean: 0.4085834688, std: 0.0617762083
Accuracy Intime: [0.7931034482758621, 0.7241379310344828, 0.7068965517241379, 0.5862068965517241, 0.7857142857142857, 0.8103448275862069, 0.8448275862068966, 0.7413793103448276, 0.6379310344827587, 0.7413793103448276, 0.6206896551724138, 0.7068965517241379, 0.8275862068965517, 0.5517241379310345, 0.75]
  mean: 0.7219211823, std: 0.0856021481
F1 In Time: [0.7941023526177291, 0.72920892494929, 0.711407227032227, 0.5839008363201912, 0.7951683732933733, 0.8181461675579322, 0.8489388508743347, 0.7351515151515151, 0.6355766995153185, 0.743037518037518, 0.6094286999550157, 0.7092824295269948, 0.8285497835497836, 0.5648034398034398, 0.7677350427350428]
  mean: 0.7249625241, std: 0.0872115028
--------------------------------------------------
Subject Number: 16
Accuracy Cross: [0.5454545454545454, 0.5104895104895105, 0.5524475524475524, 0.46853146853146854, 0.6013986013986014, 0.6503496503496503, 0.4195804195804196, 0.4965034965034965, 0.5664335664335665, 0.5314685314685315, 0.3125, 0.4722222222222222, 0.3402777777777778, 0.3472222222222222, 0.4027777777777778]
  mean: 0.4811771562, std: 0.0964727376
F1 Score: [0.4714751161004863, 0.4346776435610982, 0.5068488388263106, 0.40340195016470015, 0.5191959225510511, 0.6395570488549494, 0.4259598967639468, 0.4612792896140038, 0.5241494520392473, 0.5349554035519913, 0.2866921768707483, 0.4308847778247731, 0.30773365888497467, 0.30770042866032843, 0.3783658463385354]
  mean: 0.4421918300, std: 0.0938013650
Accuracy Intime: [0.7586206896551724, 0.7931034482758621, 0.8793103448275862, 0.8571428571428571, 0.9464285714285714, 0.7413793103448276, 0.9310344827586207, 0.8103448275862069, 0.7857142857142857, 0.8392857142857143, 0.7931034482758621, 0.8793103448275862, 0.8793103448275862, 0.8214285714285714, 0.9285714285714286]
  mean: 0.8429392447, std: 0.0617405310
F1 In Time: [0.7427606177606179, 0.7789286049347968, 0.8776360307749351, 0.8434697855750487, 0.9408742598397771, 0.7429487179487179, 0.9259992458521871, 0.8043739897392648, 0.7678571428571428, 0.7993335265140539, 0.777056277056277, 0.869463396643924, 0.8687810608114215, 0.79539625186684, 0.9126229972135145]
  mean: 0.8298334604, std: 0.0638243929
--------------------------------------------------
Subject Number: 17
Accuracy Cross: [0.5347222222222222, 0.5625, 0.6805555555555556, 0.6458333333333334, 0.5277777777777778, 0.5306122448979592, 0.4557823129251701, 0.36054421768707484, 0.3945578231292517, 0.46938775510204084, 0.5958904109589042, 0.5342465753424658, 0.5342465753424658, 0.5958904109589042, 0.6506849315068494]
  mean: 0.5382154764, std: 0.0878186597
F1 Score: [0.5209888573425974, 0.5685386708122814, 0.6810578571141951, 0.6424538137172677, 0.5115750830056597, 0.5489656372604091, 0.4920401056817691, 0.39213088891306713, 0.4209906043587078, 0.4730460634715954, 0.5899945698985133, 0.5117025831311545, 0.5301894449233499, 0.5962142289348171, 0.6425857843137255]
  mean: 0.5414982795, std: 0.0784501923
Accuracy Intime: [0.8, 0.8793103448275862, 0.896551724137931, 0.6379310344827587, 0.7413793103448276, 0.7413793103448276, 0.9310344827586207, 0.6896551724137931, 0.6206896551724138, 0.7857142857142857, 0.5862068965517241, 0.7413793103448276, 0.7758620689655172, 0.7241379310344828, 0.7321428571428571]
  mean: 0.7522249589, std: 0.0953251025
F1 In Time: [0.8097751710654937, 0.8791716839992701, 0.8833333333333333, 0.6238479262672811, 0.7211484593837535, 0.7434741822334612, 0.9312354312354313, 0.6803552769070011, 0.5909926470588236, 0.7644432773109243, 0.5788437649307214, 0.7286047286047286, 0.7806389013285564, 0.7160709096192968, 0.7041847041847042]
  mean: 0.7424080265, std: 0.1003629221
--------------------------------------------------
Subject Number: 18
Accuracy Cross: [0.5850340136054422, 0.6054421768707483, 0.5782312925170068, 0.5102040816326531, 0.5578231292517006, 0.6394557823129252, 0.6462585034013606, 0.6122448979591837, 0.564625850340136, 0.6666666666666666, 0.6066666666666667, 0.6133333333333333, 0.68, 0.64, 0.6933333333333334]
  mean: 0.6132879819, std: 0.0478865094
F1 Score: [0.5891131096627092, 0.615202541848221, 0.592492816091954, 0.5349890834331541, 0.5270103633739998, 0.5979303791601002, 0.6125320591614045, 0.5457771395271396, 0.5672154392338039, 0.6443248126536536, 0.5703532862420331, 0.5771241830065359, 0.6784461367331223, 0.5732395700251518, 0.6703444079669213]
  mean: 0.5930730219, std: 0.0436666269
Accuracy Intime: [0.95, 0.9, 0.9137931034482759, 0.9310344827586207, 0.9482758620689655, 0.7833333333333333, 0.8833333333333333, 0.8620689655172413, 0.896551724137931, 0.8793103448275862, 0.8, 0.8666666666666667, 0.9827586206896551, 0.9137931034482759, 0.896551724137931]
  mean: 0.8938314176, std: 0.0512139447
F1 In Time: [0.9501325757575758, 0.9016477272727272, 0.9123243087557604, 0.9313168449197862, 0.941931216931217, 0.7830200501253133, 0.8855375253549695, 0.8542103058232091, 0.8842832391577321, 0.868911610343062, 0.7994035594035594, 0.8755514705882352, 0.9805097451274363, 0.9114125122189638, 0.8790566959921798]
  mean: 0.8906166259, std: 0.0510280108
--------------------------------------------------
Subject Number: 19
Accuracy Cross: [0.3916083916083916, 0.3916083916083916, 0.3706293706293706, 0.35664335664335667, 0.3776223776223776, 0.3904109589041096, 0.4589041095890411, 0.410958904109589, 0.4726027397260274, 0.3698630136986301, 0.4589041095890411, 0.4657534246575342, 0.4794520547945205, 0.5136986301369864, 0.4589041095890411]
  mean: 0.4245042629, std: 0.0481256625
F1 Score: [0.3064516959714883, 0.3406416857360793, 0.28677916360968453, 0.2630992196209587, 0.32705314009661834, 0.3851010101010101, 0.4887218045112782, 0.41894615924140255, 0.41110320940829415, 0.39476838950523163, 0.438722294654498, 0.43138163892880876, 0.4609546297857986, 0.4794278996865204, 0.44462809917355367]
  mean: 0.3918520027, std: 0.0689270957
Accuracy Intime: [0.8666666666666667, 0.9137931034482759, 0.9482758620689655, 0.9655172413793104, 0.8793103448275862, 0.8103448275862069, 0.9655172413793104, 0.9310344827586207, 0.8928571428571429, 0.8392857142857143, 0.9137931034482759, 0.8793103448275862, 0.9655172413793104, 0.9464285714285714, 0.8392857142857143]
  mean: 0.9037958402, std: 0.0489353073
F1 In Time: [0.8616136551620424, 0.9193977591036415, 0.9482702197288453, 0.9660633484162896, 0.8364845938375349, 0.7811688311688312, 0.9671368861024034, 0.920995670995671, 0.8916619148473988, 0.7826424982674983, 0.9140469467499501, 0.8812037037037037, 0.9663600363006353, 0.9473081503132654, 0.8320229792003986]
  mean: 0.8944251463, std: 0.0615557894
--------------------------------------------------
Subject Number: 20
Accuracy Cross: [0.25, 0.3958333333333333, 0.375, 0.2916666666666667, 0.2013888888888889, 0.32167832167832167, 0.3776223776223776, 0.36363636363636365, 0.38461538461538464, 0.3076923076923077, 0.581081081081081, 0.5945945945945946, 0.6013513513513513, 0.46621621621621623, 0.5]
  mean: 0.4008251258, std: 0.1201703666
F1 Score: [0.24246479952211014, 0.39096287451150674, 0.30833333333333335, 0.2547478117376955, 0.19995888769712575, 0.3144569092459118, 0.3729601928753993, 0.35629444496707596, 0.37397032001747676, 0.2899669774669774, 0.5266774679031925, 0.5647757950125829, 0.5311470139056346, 0.413741302972802, 0.4796574926822303]
  mean: 0.3746743749, std: 0.1078490618
Accuracy Intime: [0.7413793103448276, 0.8793103448275862, 0.9310344827586207, 0.9107142857142857, 0.7857142857142857, 0.7068965517241379, 0.8620689655172413, 0.7931034482758621, 0.603448275862069, 0.7678571428571429, 0.6551724137931034, 0.7931034482758621, 0.7413793103448276, 0.7321428571428571, 0.6785714285714286]
  mean: 0.7721264368, std: 0.0908283492
F1 In Time: [0.7565453384418902, 0.8878878878878879, 0.930735153256705, 0.9100027423556836, 0.7294642857142857, 0.6602508960573477, 0.873015873015873, 0.7856038758029623, 0.5988095238095238, 0.7532961460446248, 0.5994505494505494, 0.7748972922502335, 0.7416666666666667, 0.7294954507857734, 0.67594726062468]
  mean: 0.7604712628, std: 0.1008902236
--------------------------------------------------
Subject Number: 21
Accuracy Cross: [0.3, 0.32666666666666666, 0.38, 0.3466666666666667, 0.32666666666666666, 0.36054421768707484, 0.3741496598639456, 0.4557823129251701, 0.3673469387755102, 0.38095238095238093, 0.42567567567567566, 0.43243243243243246, 0.4189189189189189, 0.4189189189189189, 0.4391891891891892]
  mean: 0.3835940430, std: 0.0452335529
F1 Score: [0.26157632444640844, 0.2679471788715486, 0.3135989010989011, 0.25517566294252253, 0.2508187207229615, 0.37133148714031067, 0.3880576359492022, 0.46134322249507753, 0.376514390186561, 0.3980879640454108, 0.45403888774092127, 0.4547018708604075, 0.42878167357334024, 0.43838083756709434, 0.4421569378310546]
  mean: 0.3708341130, std: 0.0773767928
Accuracy Intime: [0.6166666666666667, 0.7333333333333333, 0.896551724137931, 0.8620689655172413, 0.5344827586206896, 0.65, 0.6333333333333333, 0.7833333333333333, 0.6724137931034483, 0.8103448275862069, 0.6333333333333333, 0.8166666666666667, 0.896551724137931, 0.5689655172413793, 0.7068965517241379]
  mean: 0.7209961686, std: 0.1138623317
F1 In Time: [0.5958753620293619, 0.7267857142857144, 0.8869070208728653, 0.8585677749360614, 0.49778270509977823, 0.653477298638589, 0.6475601604278075, 0.7814102564102563, 0.6515528686581318, 0.8065545565545564, 0.6128378378378379, 0.8162878787878788, 0.8932171658986174, 0.5590992553908155, 0.7131912442396313]
  mean: 0.7134071400, std: 0.1193191500
--------------------------------------------------
Subject Number: 22
Accuracy Cross: [0.5, 0.5486111111111112, 0.4444444444444444, 0.4722222222222222, 0.4583333333333333, 0.4966442953020134, 0.5234899328859061, 0.5100671140939598, 0.5369127516778524, 0.44966442953020136, 0.28662420382165604, 0.5987261146496815, 0.5222929936305732, 0.43312101910828027, 0.4140127388535032]
  mean: 0.4796777803, std: 0.0702199179
F1 Score: [0.44885587431693985, 0.5472590947729936, 0.38832449340405273, 0.36734492851514133, 0.35437581388800904, 0.4714927637721755, 0.4617948717948718, 0.47077228831607554, 0.515591908091908, 0.39752418429250697, 0.32417076167076164, 0.6118485941811139, 0.498645961881256, 0.46960887949260044, 0.4422995159602302]
  mean: 0.4513273290, std: 0.0740003076
Accuracy Intime: [0.9333333333333333, 0.7166666666666667, 0.9333333333333333, 0.9, 0.8275862068965517, 0.8620689655172413, 0.9137931034482759, 0.8793103448275862, 0.8448275862068966, 0.6785714285714286, 0.7931034482758621, 0.8275862068965517, 0.896551724137931, 0.6724137931034483, 0.75]
  mean: 0.8286097427, std: 0.0855329344
F1 In Time: [0.9371060924369747, 0.7188207013574661, 0.9311942959001782, 0.9000668449197862, 0.8066242713301537, 0.864039408866995, 0.921899641577061, 0.8755270925574531, 0.8193727906153477, 0.6023588039867109, 0.8006390977443609, 0.8280107526881721, 0.8884110007639419, 0.6720145443080487, 0.7329857078332687]
  mean: 0.8199380698, std: 0.0967020934
--------------------------------------------------
Subject Number: 23
Accuracy Cross: [0.5902777777777778, 0.4027777777777778, 0.4375, 0.2708333333333333, 0.4513888888888889, 0.4405594405594406, 0.4405594405594406, 0.43356643356643354, 0.5174825174825175, 0.40559440559440557, 0.23129251700680273, 0.2585034013605442, 0.4013605442176871, 0.32653061224489793, 0.38095238095238093]
  mean: 0.3992786314, std: 0.0928916344
F1 Score: [0.5767376825856437, 0.390542827985656, 0.4098399180976314, 0.27638134057971014, 0.4332652248277092, 0.3953361742424243, 0.4421208542916074, 0.4174686888807468, 0.5342897006840862, 0.3818311821536295, 0.18369331852950707, 0.22936507936507936, 0.3701484049752122, 0.3025820771112002, 0.33739423604493346]
  mean: 0.3787331140, std: 0.1005640831
Accuracy Intime: [0.8275862068965517, 0.9137931034482759, 0.7758620689655172, 0.5, 0.6071428571428571, 0.6379310344827587, 0.9310344827586207, 0.8275862068965517, 0.7068965517241379, 0.6428571428571429, 0.7241379310344828, 0.8275862068965517, 0.7758620689655172, 0.9107142857142857, 0.6964285714285714]
  mean: 0.7536945813, std: 0.1202681474
F1 In Time: [0.8306926406926407, 0.9163286004056795, 0.7776348039215686, 0.45171203871748333, 0.5237268518518519, 0.6235365853658537, 0.9344086021505377, 0.8163690476190476, 0.6233800682076545, 0.5424175824175824, 0.7278642278642279, 0.8395299145299145, 0.771435143174027, 0.9114658489658489, 0.6535842293906811]
  mean: 0.7296057457, std: 0.1475886805
--------------------------------------------------
Subject Number: 24
Accuracy Cross: [0.47586206896551725, 0.43448275862068964, 0.4206896551724138, 0.5310344827586206, 0.4689655172413793, 0.5821917808219178, 0.5684931506849316, 0.6438356164383562, 0.6301369863013698, 0.5684931506849316, 0.42567567567567566, 0.3918918918918919, 0.36486486486486486, 0.3310810810810811, 0.3716216216216216]
  mean: 0.4806213535, std: 0.0971969110
F1 Score: [0.46280258151732767, 0.4282938754503346, 0.39268220495745465, 0.5376857904900301, 0.46268231259428444, 0.5572833683648103, 0.5517620408727486, 0.5985402565238833, 0.6349911214157423, 0.5683813088838268, 0.42444174757281555, 0.36874999999999997, 0.3687225125341583, 0.36725203793227623, 0.39205248518912406]
  mean: 0.4744215763, std: 0.0890898712
Accuracy Intime: [0.7166666666666667, 0.896551724137931, 0.9482758620689655, 0.896551724137931, 0.9827586206896551, 0.5689655172413793, 0.9482758620689655, 0.896551724137931, 0.7758620689655172, 0.7931034482758621, 0.7758620689655172, 0.8793103448275862, 0.9137931034482759, 0.896551724137931, 0.9655172413793104]
  mean: 0.8569731801, std: 0.1077469708
F1 In Time: [0.6892679900744416, 0.9011709770114943, 0.9446209058658526, 0.8869070208728653, 0.9848484848484849, 0.5454880877082016, 0.947900432900433, 0.880190127833816, 0.7434760490568113, 0.7979190947940948, 0.7783751493428912, 0.880489417989418, 0.9023624132634144, 0.8869806940371456, 0.9643904482614161]
  mean: 0.8489591529, std: 0.1147385039
--------------------------------------------------
Subject Number: 25
Accuracy Cross: [0.3877551020408163, 0.3877551020408163, 0.3945578231292517, 0.42857142857142855, 0.4421768707482993, 0.581081081081081, 0.4594594594594595, 0.5202702702702703, 0.5202702702702703, 0.4527027027027027, 0.6644736842105263, 0.6052631578947368, 0.618421052631579, 0.5986842105263158, 0.618421052631579]
  mean: 0.5119908845, std: 0.0930228615
F1 Score: [0.35906810035842296, 0.36737477429434817, 0.38302318859912404, 0.3972106384950421, 0.4342454297791919, 0.5795294869065362, 0.45952410878881467, 0.5079284004043296, 0.5209926516378129, 0.4505507088912323, 0.6196755288736421, 0.5878357612637531, 0.586417844223186, 0.5438776967298973, 0.5893112253554582]
  mean: 0.4924377030, std: 0.0877441284
Accuracy Intime: [0.9, 0.9166666666666666, 0.7666666666666667, 0.6206896551724138, 0.8620689655172413, 0.85, 0.8, 0.896551724137931, 0.7068965517241379, 0.8103448275862069, 0.8333333333333334, 0.8666666666666667, 0.8448275862068966, 0.6724137931034483, 0.7758620689655172]
  mean: 0.8081992337, std: 0.0835631569
F1 In Time: [0.8921825396825397, 0.9222011385199241, 0.7763392857142857, 0.62315867003367, 0.8643939393939395, 0.8574712643678162, 0.8003770908004779, 0.9017156862745098, 0.6969202898550725, 0.8031497238393791, 0.8355251803527666, 0.8701742919389978, 0.8434172890513268, 0.6767778592375366, 0.7482434640522877]
  mean: 0.8074698475, std: 0.0851631793
--------------------------------------------------
Subject Number: 26
Accuracy Cross: [0.3586206896551724, 0.35172413793103446, 0.36551724137931035, 0.3586206896551724, 0.3448275862068966, 0.3673469387755102, 0.5238095238095238, 0.5170068027210885, 0.2585034013605442, 0.5034013605442177, 0.348993288590604, 0.2751677852348993, 0.46308724832214765, 0.3624161073825503, 0.37583892617449666]
  mean: 0.3849921152, std: 0.0781320998
F1 Score: [0.26837944664031615, 0.30210815047021944, 0.29666666666666663, 0.28802215827055483, 0.29609688501400155, 0.3125931723315444, 0.5138034458673535, 0.4347139347139347, 0.21671311780007432, 0.4827687626774848, 0.38360483208117485, 0.2983695652173913, 0.46382829777417145, 0.31403318903318905, 0.3707790495595374]
  mean: 0.3494987116, std: 0.0847822677
Accuracy Intime: [0.8333333333333334, 0.8333333333333334, 0.8793103448275862, 0.8103448275862069, 0.6724137931034483, 0.7413793103448276, 0.8275862068965517, 0.7931034482758621, 0.7241379310344828, 0.5862068965517241, 0.5862068965517241, 0.6896551724137931, 0.6206896551724138, 0.6724137931034483, 0.3793103448275862]
  mean: 0.7099616858, std: 0.1270945389
F1 In Time: [0.8282342657342658, 0.8305171299288946, 0.8827071758238527, 0.8035353535353535, 0.5998105342932929, 0.7489972691585595, 0.8345015937409446, 0.7874877810361682, 0.7238888888888889, 0.5303637334887334, 0.5855248200075787, 0.6891008486887378, 0.608765929872561, 0.6677838290741516, 0.35317460317460314]
  mean: 0.6982929171, std: 0.1385495971
--------------------------------------------------
Subject Number: 27
Accuracy Cross: [0.5347222222222222, 0.5625, 0.6805555555555556, 0.6458333333333334, 0.5277777777777778, 0.5306122448979592, 0.4557823129251701, 0.36054421768707484, 0.3945578231292517, 0.46938775510204084, 0.5958904109589042, 0.5342465753424658, 0.5342465753424658, 0.5958904109589042, 0.6506849315068494]
  mean: 0.5382154764, std: 0.0878186597
F1 Score: [0.5209888573425974, 0.5685386708122814, 0.6810578571141951, 0.6424538137172677, 0.5115750830056597, 0.5489656372604091, 0.4920401056817691, 0.39213088891306713, 0.4209906043587078, 0.4730460634715954, 0.5899945698985133, 0.5117025831311545, 0.5301894449233499, 0.5962142289348171, 0.6425857843137255]
  mean: 0.5414982795, std: 0.0784501923
Accuracy Intime: [0.8, 0.8793103448275862, 0.896551724137931, 0.6379310344827587, 0.7413793103448276, 0.7413793103448276, 0.9310344827586207, 0.6896551724137931, 0.6206896551724138, 0.7857142857142857, 0.5862068965517241, 0.7413793103448276, 0.7758620689655172, 0.7241379310344828, 0.7321428571428571]
  mean: 0.7522249589, std: 0.0953251025
F1 In Time: [0.8097751710654937, 0.8791716839992701, 0.8833333333333333, 0.6238479262672811, 0.7211484593837535, 0.7434741822334612, 0.9312354312354313, 0.6803552769070011, 0.5909926470588236, 0.7644432773109243, 0.5788437649307214, 0.7286047286047286, 0.7806389013285564, 0.7160709096192968, 0.7041847041847042]
  mean: 0.7424080265, std: 0.1003629221
--------------------------------------------------
Subject Number: 28
Accuracy Cross: [0.23776223776223776, 0.34965034965034963, 0.2867132867132867, 0.23776223776223776, 0.2097902097902098, 0.3767123287671233, 0.3287671232876712, 0.4452054794520548, 0.4452054794520548, 0.3767123287671233, 0.17763157894736842, 0.19078947368421054, 0.16447368421052633, 0.13157894736842105, 0.20394736842105263]
  mean: 0.2775134743, std: 0.0995216573
F1 Score: [0.1592204092204092, 0.32712706946577913, 0.23560579161241962, 0.1901000014154482, 0.16259435009435008, 0.27860696517412936, 0.25834627329192544, 0.40370124113475175, 0.3951465201465202, 0.3100126673263561, 0.07803468208092486, 0.09001532175689479, 0.08194266153187847, 0.08453570505642174, 0.11424559038310303]
  mean: 0.2112823500, std: 0.1100114769
Accuracy Intime: [0.7833333333333333, 0.7241379310344828, 0.8793103448275862, 0.7758620689655172, 0.6896551724137931, 0.8620689655172413, 0.7758620689655172, 0.8103448275862069, 0.7142857142857143, 0.6964285714285714, 0.7758620689655172, 0.8620689655172413, 0.9310344827586207, 0.8035714285714286, 0.7678571428571429]
  mean: 0.7901122058, std: 0.0677654765
F1 In Time: [0.770257867132867, 0.7151405586188195, 0.8892251317523057, 0.7873851294903926, 0.6863136863136863, 0.8644008714596949, 0.7833409610983982, 0.8135559204524722, 0.6597222222222222, 0.6949801309022908, 0.7824726345778977, 0.8615387246852764, 0.928066378066378, 0.7852038076995632, 0.7692680626296926]
  mean: 0.7860581391, std: 0.0744711623
--------------------------------------------------
Subject Number: 29
Accuracy Cross: [0.34965034965034963, 0.36363636363636365, 0.35664335664335667, 0.32867132867132864, 0.3006993006993007, 0.21379310344827587, 0.2413793103448276, 0.3448275862068966, 0.27586206896551724, 0.1793103448275862, 0.42567567567567566, 0.40540540540540543, 0.42567567567567566, 0.5067567567567568, 0.36486486486486486]
  mean: 0.3388567661, std: 0.0838963808
F1 Score: [0.3459736984327148, 0.3570748703517795, 0.3632785825773095, 0.3426844866931205, 0.30574014670962957, 0.1955857066481714, 0.23419787014771554, 0.32182634795629145, 0.2566701680672269, 0.20309320309320308, 0.38631239189523103, 0.37510648462819035, 0.41594418807456124, 0.5143601922748086, 0.34678878335594754]
  mean: 0.3309758081, std: 0.0810300814
Accuracy Intime: [0.5862068965517241, 0.8103448275862069, 0.896551724137931, 0.5689655172413793, 0.7586206896551724, 0.9310344827586207, 0.9655172413793104, 0.6896551724137931, 0.6785714285714286, 0.8392857142857143, 0.6724137931034483, 0.7758620689655172, 0.8448275862068966, 0.625, 0.6071428571428571]
  mean: 0.7500000000, std: 0.1244843847
F1 In Time: [0.5964514835605453, 0.8199582027168233, 0.8946640316205534, 0.5617438867438868, 0.7425644338435037, 0.9348234149054505, 0.9651004670359509, 0.6875583566760037, 0.6529604803798352, 0.7979112390877097, 0.6707317073170732, 0.7801724137931034, 0.8434044882320744, 0.5835524237058765, 0.5782471264367817]
  mean: 0.7406562771, std: 0.1298065621
--------------------------------------------------
**************************************************
accuracy_cross_list: [0.4616442255062944, 0.5802922286448299, 0.43448825858026824, 0.4270498084291187, 0.41329032762530293, 0.30703892668178384, 0.4494455316373125, 0.47937843966415383, 0.4485171275777929, 0.46568696615933275, 0.3308098127883969, 0.42330848178746144, 0.25985947183008046, 0.3059454879254343, 0.4275876939764517, 0.4811771561771562, 0.5382154764493315, 0.6132879818594105, 0.42450426286042725, 0.40082512582512575, 0.3835940430226145, 0.47967778031098257, 0.39927863142148856, 0.48062135352168417, 0.5119908845472756, 0.3849921151828779, 0.5382154764493315, 0.27751347426906187, 0.3388567660981454]
f1_score_list: [0.4606241205881524, 0.5651565520450171, 0.3876524759838706, 0.4103602853028355, 0.37096842129400975, 0.29687273361024585, 0.4282358125015442, 0.4213445367922677, 0.44367680595648573, 0.44516564914383855, 0.2926313900092926, 0.4082874973776425, 0.19265724711022614, 0.2609494989094705, 0.4085834687986541, 0.44219183004047635, 0.541498279525274, 0.5930730218746603, 0.3918520026687483, 0.3746743749234037, 0.37083411303144814, 0.4513273289567092, 0.37873311402365173, 0.4744215762865878, 0.49243770297338607, 0.349498711607841, 0.541498279525274, 0.21128234997942077, 0.3309758080603934]
accuracy_intime_list: [0.766030136192408, 0.8099343185550083, 0.8654022988505747, 0.6597701149425289, 0.8386590038314174, 0.7118281335522715, 0.8029501915708812, 0.8373180076628352, 0.6815900383141763, 0.7523371647509578, 0.6869731800766282, 0.7918719211822661, 0.7576354679802955, 0.9229955636216981, 0.7219211822660099, 0.8429392446633824, 0.7522249589490968, 0.893831417624521, 0.9037958401751502, 0.7721264367816093, 0.7209961685823755, 0.8286097427476738, 0.7536945812807883, 0.8569731800766281, 0.8081992337164753, 0.7099616858237549, 0.7522249589490968, 0.790112205801861, 0.7500000000000001]
f1_in_time_list: [0.7531591596075293, 0.7855467485092855, 0.865770977196819, 0.6473843835722525, 0.8316582596044283, 0.6799381081988576, 0.7780298499750052, 0.829198822414212, 0.6493166596578577, 0.7535968245280876, 0.6807640286925515, 0.789853562839935, 0.7534563909784194, 0.9223249305433534, 0.7249625240613137, 0.8298334603592347, 0.7424080264975188, 0.8906166258514485, 0.894425146259874, 0.7604712628109792, 0.7134071400045269, 0.8199380697923945, 0.7296057456849733, 0.848959152924052, 0.8074698475409687, 0.6982929170964393, 0.7424080264975188, 0.7860581391401305, 0.7406562770703449]
**************************************************
Mean Accuracy: 0.4298997695
Mean F1: 0.4047401720
Std Accuracy: 0.0844101283
Std F1: 0.0950487264
Mean Accuracy (Intime): 0.7842381510
Std Accuracy (Intime): 0.0671587055
Mean F1 (Intime): 0.7741210713
Std F1 (Intime): 0.0706785148
ACC: 42.99±8.44
F1: 40.47±9.50
Intime: 78.42±6.72
F1 (Intime): 77.41±7.07
